time,flux
1323.9029552249526,0.9979790530119697
1323.9157389331403,0.9979789563369881
1323.928522641328,0.9979788639019594
1323.9413063495158,0.9979787731892302
1323.9540900577035,0.9979786866318452
1323.9668737658913,0.997978602060601
1323.979657474079,0.9979785211987203
1323.9924411822667,0.9979784443648821
1324.0052248904544,0.9979783696816824
1324.0180085986422,0.9979782981691849
1324.0307923068299,0.9979782295478112
1324.0435760150176,0.9979781653900892
1324.0563597232053,0.9979781018524576
1324.069143431393,0.997978042850358
1324.0819271395808,0.9979779881421204
1324.0947108477685,0.9979779353448114
1324.1074945559562,0.9979778854258372
1324.1202782641442,0.9979778385430559
1324.133061972332,0.9979777955525432
1324.1458456805196,0.9979777559060858
1324.1586293887074,0.9979777191386483
1324.171413096895,0.9979776827694339
1324.1841968050828,0.997977652464806
1324.1969805132705,0.9979776245606793
1324.2097642214583,0.9979776009528556
1324.222547929646,0.9979775770611992
1324.2353316378337,0.9979775601591448
1324.2481153460215,0.9979775443114401
1324.2608990542092,0.9979775330302053
1324.273682762397,0.9979775237501756
1324.2864664705846,0.9979775170357751
1324.2992501787724,0.997977512990096
1324.31203388696,0.997977513666856
1324.3248175951478,0.997977516965032
1324.3376013033355,0.9979775228435368
1324.3503850115233,0.9979775336585488
1324.363168719711,0.9979775448053421
1324.3759524278987,0.9979775623541155
1324.3887361360864,0.9979775811453736
1324.4015198442742,0.9979776017666048
1324.414303552462,0.9979776271703669
1324.4270872606496,0.9979776550762646
1324.4398709688373,0.9979776868435756
1324.452654677025,0.9979777213930856
1324.4654383852128,0.9979777582942537
1324.4782220934005,0.9979777989762995
1324.4910058015882,0.9979778420582752
1324.503789509776,0.9979778894229403
1324.5165732179637,0.9979779391707307
1324.5293569261514,0.9979779915913339
1324.5421406343391,0.9979780481989006
1324.554924342527,0.9979781072244133
1324.5677080507148,0.9979781694375899
1324.5804917589026,0.9979782345906422
1324.5932754670903,0.9979783038065606
1324.606059175278,0.9979783750111778
1324.6188428834657,0.9979784499541862
1324.6316265916535,0.9979785286815882
1324.6444102998412,0.99797860943148
1324.657194008029,0.9979786926522328
1324.6699777162166,0.9979787805877798
1324.6827614244044,0.9979788707852839
1324.695545132592,0.9979789650672921
1324.7083288407798,0.9979790614264634
1324.7211125489675,0.9979791594743962
1324.7338962571553,0.9979792635305104
1324.746679965343,0.9979793696067347
1324.7594636735307,0.9979794781838999
1324.7722473817184,0.9979795897647128
1324.7850310899062,0.9979797064418342
1324.797814798094,0.9979798237620134
1324.8105985062816,0.997979945874141
1324.8233822144693,0.9979800700271393
1324.836165922657,0.9979801971425065
1324.8489496308448,0.9979803272777463
1324.8617333390325,0.9979804613914792
1324.8745170472203,0.9979805981985687
1324.887300755408,0.997980737676126
1324.9000844635957,0.9979808818182901
1324.9128681717834,0.9979810285468217
1324.9256518799712,0.997981176859343
1324.9384355881589,0.9979813306384274
1324.9512192963466,0.9979814841439154
1324.9640030045343,0.9979816442105469
1324.976786712722,0.9979818062901759
1324.98957042091,0.9979819701105587
1325.0023541290977,0.9979821380666278
1325.0151378372855,0.997982309785232
1325.0279215454732,0.9979824836406133
1325.040705253661,0.9979826595226282
1325.0534889618486,0.9979828405021524
1325.0662726700364,0.9979830244044732
1325.079056378224,0.9979832102125238
1325.0918400864118,0.9979834003492675
1325.1046237945995,0.997983592620284
1325.1174075027873,0.997983788997135
1325.130191210975,0.9979839879580135
1325.1429749191627,0.9979841903739538
1325.1557586273505,0.9979843952688282
1325.1685423355382,0.9979846038271993
1325.181326043726,0.9979848150919648
1325.1941097519136,0.9979850298713551
1325.2068934601014,0.9979852473062576
1325.219677168289,0.9979854678643563
1325.2324608764768,0.9979856928506224
1325.2452445846645,0.9979859181489302
1325.2580282928523,0.9979861492731312
1325.27081200104,0.9979863810724967
1325.2835957092277,0.9979866168852262
1325.2963794174154,0.9979868559017833
1325.3091631256032,0.9982492786916287
1325.321946833791,0.9981354880342339
1325.3347305419786,0.9981163820474612
1325.3475142501663,0.9980963420065623
1325.360297958354,0.998220835421289
1325.3730816665418,0.9982131128978717
1325.3858653747295,0.998303918463749
1325.3986490829172,0.9982374128553628
1325.411432791105,0.9982587690135947
1325.424216499293,0.998255357039022
1325.4370002074807,0.9981599479166934
1325.4497839156684,0.9979703191798873
1325.462567623856,0.9978863656540449
1325.4753513320438,0.9978866814292882
1325.4881350402316,0.9980431499204668
1325.5009187484193,0.9977971285428494
1325.513702456607,0.9979338009796742
1325.5264861647947,0.9979570022391131
1325.5392698729825,0.9978853311108146
1325.5520535811702,0.9979760985203712
1325.564837289358,0.9982434848513599
1325.5776209975456,0.9982335045613114
1325.5904047057334,0.9982507247602269
1325.603188413921,0.9983431517405077
1325.6159721221088,0.9982615382207872
1325.6287558302965,0.9982485927647448
1325.6415395384843,0.9982219393441776
1325.654323246672,0.998318472877443
1325.6671069548597,0.9982295461561732
1325.6798906630474,0.9983510347090484
1325.6926743712352,0.9983384693531759
1325.705458079423,0.9983134567411835
1325.7182417876106,0.9982348982133835
1325.7310254957983,0.9982506558291399
1325.743809203986,0.9980739305915929
1325.7565929121738,0.9981807377255644
1325.7693766203615,0.9983035437364125
1325.7821603285493,0.9982810089536049
1325.794944036737,0.9983545044927767
1325.8077277449247,0.9983175438258842
1325.8205114531124,0.9982792555258945
1325.8332951613002,0.9981395811368301
1325.8460788694879,0.9983063946621014
1325.8588625776758,0.9983610697505759
1325.8716462858636,0.9981976767066698
1325.8844299940513,0.9982401003926576
1325.897213702239,0.9982528527204698
1325.9099974104267,0.9983237000985132
1325.9227811186145,0.9982616967735558
1325.9355648268022,0.9980926759568535
1325.94834853499,0.9983503991614789
1325.9611322431776,0.9982368289845666
1325.9739159513654,0.9981362247949512
1325.986699659553,0.998250728985811
1325.9994833677408,0.9981627277456988
1326.0122670759285,0.9982047641242225
1326.0250507841163,0.9984453327083432
1326.037834492304,0.9982298914671075
1326.0506182004917,0.9983031710759447
1326.0634019086795,0.9983550676266782
1326.0761856168672,0.9983251775634376
1326.088969325055,0.9981543299890373
1326.1017530332426,0.99814932026232
1326.1145367414304,0.9984265205521257
1326.127320449618,0.9982959365766337
1326.1401041578058,0.9983577115194965
1326.1528878659935,0.9983090535953804
1326.1656715741813,0.998255087019354
1326.178455282369,0.9981747854823015
1326.1912389905567,0.9983246971273716
1326.2040226987444,0.9984803504696182
1326.2168064069322,0.9982571212578957
1326.22959011512,0.9983268726606391
1326.2423738233076,0.998172152258007
1326.2551575314953,0.9982691835413819
1326.267941239683,0.9982783718822454
1326.280724947871,0.9982852274951769
1326.2935086560587,0.9982660383376961
1326.3062923642465,0.9982398981821236
1326.3190760724342,0.9982763698848157
1326.331859780622,0.9981396579731597
1326.3446434888097,0.9983676897735849
1326.3574271969974,0.9983051274917987
1326.370210905185,0.9982548597141446
1326.3829946133728,0.9982562354650915
1326.3957783215606,0.9982794956226119
1326.4085620297483,0.9983494994041188
1326.421345737936,0.998289720367709
1326.4341294461237,0.9981832372409584
1326.4469131543115,0.9982337923017109
1326.4596968624992,0.9983282292834974
1326.472480570687,0.9981408825693562
1326.4852642788746,0.9982558282137706
1326.4980479870624,0.998197994351763
1326.51083169525,0.9983389014351176
1326.5236154034378,0.9982023404127768
1326.5363991116255,0.9984295379180196
1326.5491828198133,0.9983402703664552
1326.561966528001,0.9981230164945749
1326.5747502361887,0.9981969651720817
1326.5875339443764,0.998275376641947
1326.6003176525642,0.9982222610078914
1326.613101360752,0.9982339208242065
1326.6258850689396,0.998249303786255
1326.6386687771274,0.9982946705011887
1326.651452485315,0.9982580185757861
1326.6642361935028,0.9984421914838326
1326.6770199016905,0.9981770564477259
1326.6898036098783,0.9982641917984941
1326.702587318066,0.9981278219063585
1326.715371026254,0.9981795629305656
1326.7281547344417,0.9982892083981977
1326.7409384426294,0.9983283146917714
1326.753722150817,0.9981872038508982
1326.7665058590048,0.9983108652464855
1326.7792895671926,0.9982952699511177
1326.7920732753803,0.9983532307524027
1326.804856983568,0.998213061100446
1326.8176406917557,0.9983286740409079
1326.8304243999435,0.9984399596997693
1326.8432081081312,0.9983008903614942
1326.855991816319,0.9982994907371916
1326.8687755245066,0.9983969953862127
1326.8815592326944,0.998370558349231
1326.894342940882,0.9982635906002099
1326.9071266490698,0.9983062683028983
1326.9199103572575,0.9981541353524018
1326.9326940654453,0.9982241172074626
1326.945477773633,0.9982843212037926
1326.9582614818207,0.9982198045897289
1326.9710451900085,0.9981815915616506
1326.9838288981962,0.9984096427706871
1326.996612606384,0.998383257247932
1327.0093963145716,0.9983929319785818
1327.0221800227594,0.9983885106767953
1327.034963730947,0.9983406604172682
1327.0477474391348,0.998293560758636
1327.0605311473225,0.9984008175627221
1327.0733148555103,0.998386948050921
1327.086098563698,0.9982605968022943
1327.0988822718857,0.9984251951879658
1327.1116659800734,0.998427950744027
1327.1244496882612,0.9983112589400898
1327.137233396449,0.9984576342517046
1327.1500171046368,0.9982384769848962
1327.1628008128246,0.9984098872418028
1327.1755845210123,0.9983032547067267
1327.1883682292,0.9983953731781204
1327.2011519373877,0.9983879807964597
1327.2139356455755,0.9982255775437368
1327.2267193537632,0.9983774358983188
1327.239503061951,0.9982343054053575
1327.2522867701387,0.9981473182522542
1327.2650704783264,0.998309215140425
1327.277854186514,0.9983510498406235
1327.2906378947018,0.9982188940970993
1327.3034216028896,0.9982896410211608
1327.3162053110773,0.9984114862866518
1327.328989019265,0.998326558017992
1327.3417727274527,0.9981659014599082
1327.3545564356405,0.9983777914070826
1327.3673401438282,0.9983924255788277
1327.380123852016,0.9983104496184022
1327.3929075602036,0.99822072714726
1327.4056912683914,0.9983119821596121
1327.418474976579,0.9983034430550038
1327.4312586847668,0.9983116827575844
1327.4440423929545,0.9982682539609575
1327.4568261011423,0.9983973472765538
1327.46960980933,0.9983362988919282
1327.4823935175177,0.9984074315231952
1327.4951772257054,0.9982583399978836
1327.5079609338932,0.9982498317632198
1327.520744642081,0.9983876894436235
1327.5335283502686,0.9983569600205723
1327.5463120584564,0.9983016251318253
1327.559095766644,0.9983338455929591
1327.5718794748318,0.9982813976412
1327.5846631830198,0.9984479134507336
1327.5974468912075,0.9983988201165606
1327.6102305993952,0.9983790456336898
1327.623014307583,0.9983624029358127
1327.6357980157707,0.9983281667177388
1327.6485817239584,0.9984084195778945
1327.661365432146,0.9984968277429768
1327.6741491403338,0.9982991691061944
1327.6869328485216,0.9984515163876498
1327.6997165567093,0.9982673607650129
1327.712500264897,0.9984315655744994
1327.7252839730847,0.9983303621386647
1327.7380676812725,0.9982673779958846
1327.7508513894602,0.9982993961559188
1327.763635097648,0.9982112154466164
1327.7764188058356,0.9980569467846157
1327.7892025140234,0.9983537406121594
1327.801986222211,0.9983159782419517
1327.8147699303988,0.9983870626219017
1327.8275536385866,0.998502199660183
1327.8403373467743,0.9983124815261202
1327.853121054962,0.9984089653778564
1327.8659047631497,0.9984150374459465
1327.8786884713375,0.9984030571780617
1327.8914721795252,0.9983482182026782
1327.904255887713,0.9983947253549718
1327.9170395959006,0.9983903772688126
1327.9298233040884,0.998484535813061
1327.942607012276,0.9984724607329815
1327.9553907204638,0.9984927807743661
1327.9681744286515,0.9983163189725912
1327.9809581368393,0.998410606985632
1327.993741845027,0.9983868502709998
1328.006525553215,0.9985208927920473
1328.0193092614027,0.9982942322075659
1328.0320929695904,0.9984328867628253
1328.0448766777781,0.9984764818610349
1328.0576603859658,0.9984500419397684
1328.0704440941536,0.9984751454219756
1328.0832278023413,0.9984810823213845
1328.096011510529,0.9984595073314768
1328.1087952187168,0.9982834022196047
1328.1215789269045,0.9984163649406725
1328.1343626350922,0.9984790169707384
1328.14714634328,0.9983924026987671
1328.1599300514677,0.9983908638553539
1328.1727137596554,0.9984682095142792
1328.185497467843,0.9984044973800786
1328.1982811760308,0.9983578721330416
1328.2110648842186,0.9984148119161755
1328.2238485924063,0.9983687507736183
1328.236632300594,0.9984173053964104
1328.2494160087817,0.9984433010863302
1328.2621997169695,0.9983436092738298
1328.2749834251572,0.9984618899938628
1328.287767133345,0.9984360875804066
1328.3005508415326,0.9985225156111112
1328.3133345497204,0.9984533906708705
1328.326118257908,0.9985406688771644
1328.3389019660958,0.9985098138658052
1328.3516856742835,0.9984063399786036
1328.3644693824713,0.9983451588417686
1328.377253090659,0.9983855577890165
1328.3900367988467,0.9983522189949282
1328.4028205070344,0.9983818482099421
1328.4156042152222,0.9982565627080222
1328.42838792341,0.9983528106054995
1328.4411716315979,0.998555403239085
1328.4539553397856,0.998472441576233
1328.4667390479733,0.9985023765207552
1328.479522756161,0.9984693732106111
1328.4923064643488,0.9983991190722419
1328.5050901725365,0.9984571220792777
1328.5178738807242,0.9983312774281644
1328.530657588912,0.9983747136253459
1328.5434412970997,0.9983193697630048
1328.5562250052874,0.9984777763295934
1328.5690087134751,0.998516662378867
1328.5817924216628,0.998365586273266
1328.5945761298506,0.9984921605570999
1328.6073598380383,0.998573540949617
1328.620143546226,0.9984840784351806
1328.6329272544137,0.9985570952119426
1328.6457109626015,0.998531261574724
1328.6584946707892,0.9984520371368362
1328.671278378977,0.9985581832226602
1328.6840620871646,0.998455303918901
1328.6968457953524,0.9982903282397704
1328.70962950354,0.9984344212975871
1328.7224132117278,0.9984141127294129
1328.7351969199156,0.9984936419831147
1328.7479806281033,0.9984626545096283
1328.760764336291,0.9983568642526035
1328.7735480444787,0.9984155328359395
1328.7863317526665,0.9986001269683752
1328.7991154608542,0.9983346504638577
1328.811899169042,0.9985063758185493
1328.8246828772296,0.9985204699225442
1328.8374665854174,0.9985358118964363
1328.850250293605,0.9983963943523313
1328.8630340017928,0.9986282483448872
1328.8758177099808,0.9985126876456908
1328.8886014181685,0.998559387781267
1328.9013851263562,0.99866047083095
1328.914168834544,0.9984042587668565
1328.9269525427317,0.9984779944870295
1328.9397362509194,0.9985013268241506
1328.9525199591071,0.9981767257507936
1328.9653036672948,0.9985018555558636
1328.9780873754826,0.9985184239668918
1328.9908710836703,0.9985249009885617
1329.003654791858,0.9984322548417768
1329.0164385000458,0.9985143780636991
1329.0292222082335,0.9983372193517202
1329.0420059164212,0.9984797128114092
1329.054789624609,0.9984454993880246
1329.0675733327967,0.9985566660663088
1329.0803570409844,0.9985023082477826
1329.093140749172,0.9985453999814993
1329.1059244573598,0.998431084555842
1329.1187081655476,0.998440291150106
1329.1314918737353,0.9985536826015858
1329.144275581923,0.9985270460036584
1329.1570592901107,0.998529968137302
1329.1698429982985,0.998623876561729
1329.1826267064862,0.9984457225855939
1329.195410414674,0.9984707959161477
1329.2081941228616,0.9985135160008876
1329.2209778310494,0.9984216426526272
1329.233761539237,0.9985375832078028
1329.2465452474248,0.9984002832851966
1329.2593289556125,0.9986744805318907
1329.2721126638003,0.9985364996708358
1329.284896371988,0.9985371120323222
1329.2976800801757,0.9985276221967372
1329.3104637883637,0.9986336504655007
1329.3232474965514,0.9985734299656305
1329.3360312047391,0.9986113040665927
1329.3488149129269,0.9986180496195122
1329.3615986211146,0.998613680589295
1329.3743823293023,0.9985798190292857
1329.38716603749,0.9986194804834646
1329.3999497456778,0.998556125141187
1329.4127334538655,0.9985568543526664
1329.4255171620532,0.9985140799441488
1329.438300870241,0.9984097546500305
1329.4510845784287,0.998194534636561
1329.4638682866164,0.9986241982858199
1329.4766519948041,0.9985836754782946
1329.4894357029918,0.9984046754478743
1329.5022194111796,0.9984627502861636
1329.5150031193673,0.9985782966464122
1329.527786827555,0.9983500389272012
1329.5405705357427,0.9985082605859658
1329.5533542439305,0.9985180394441084
1329.5661379521182,0.9984368904459202
1329.578921660306,0.9985494666912262
1329.5917053684936,0.99831694744744
1329.6044890766814,0.9984191807169067
1329.617272784869,0.9984290774283644
1329.6300564930568,0.9983668378851195
1329.6428402012446,0.9985891933419407
1329.6556239094323,0.9984400979438083
1329.66840761762,0.9987190323665903
1329.6811913258077,0.9984265528612507
1329.6939750339955,0.9984843830757368
1329.7067587421832,0.9984514195821262
1329.719542450371,0.99866172843318
1329.7323261585586,0.9985948303118732
1329.7451098667466,0.9985840257530588
1329.7578935749343,0.9985130757112183
1329.770677283122,0.9985736152503397
1329.7834609913098,0.9983873445291306
1329.7962446994975,0.998586732933736
1329.8090284076852,0.998505526136
1329.821812115873,0.9986713179084015
1329.8345958240607,0.9990645002871721
1329.8473795322484,0.9985263453330392
1329.8601632404361,0.9984016305472599
1329.8729469486238,0.9984756074555646
1329.8857306568116,0.9984666691535931
1329.8985143649993,0.9983541289298403
1329.911298073187,0.9985138724974872
1329.9240817813748,0.9985740524887287
1329.9368654895625,0.9985640857110624
1329.9496491977502,0.9986332172615405
1329.962432905938,0.9985225133693725
1329.9752166141257,0.9984963551409838
1329.9880003223134,0.9985542629467719
1330.000784030501,0.9985326920694971
1330.0135677386888,0.998451018370046
1330.0263514468766,0.9984851826844656
1330.0391351550643,0.9987436513426152
1330.051918863252,0.9984424354853841
1330.0647025714397,0.998577635147718
1330.0774862796275,0.9984912892202858
1330.0902699878152,0.9985784612424807
1330.103053696003,0.9984914123961405
1330.1158374041906,0.9984033360883866
1330.1286211123784,0.9983626051050694
1330.141404820566,0.99874675424443
1330.1541885287538,0.9984961184268986
1330.1669722369415,0.9984580419680975
1330.1797559451295,0.9983910951812988
1330.1925396533172,0.9986510226338223
1330.205323361505,0.9985220916530962
1330.2181070696927,0.9984480515792333
1330.2308907778804,0.9986745583357867
1330.2436744860681,0.9983569460914804
1330.2564581942559,0.9985886863773304
1330.2692419024436,0.9984788410113893
1330.2820256106313,0.9987168745134815
1330.294809318819,0.9985235599350456
1330.3075930270068,0.9986204263243573
1330.3203767351945,0.9986494436902889
1330.3331604433822,0.998479541788975
1330.34594415157,0.998563158049105
1330.3587278597577,0.9984531112941558
1330.3715115679454,0.9985357091954697
1330.3842952761331,0.998538111240285
1330.3970789843208,0.9986071679360972
1330.4098626925086,0.9983913952098499
1330.4226464006963,0.9984873204293061
1330.435430108884,0.9986868523465423
1330.4482138170717,0.9984886370253058
1330.4609975252595,0.9985545035281516
1330.4737812334472,0.9984632822717725
1330.486564941635,0.9985817191981605
1330.4993486498227,0.9985858792781165
1330.5121323580104,0.9985451293015736
1330.524916066198,0.9985266528893539
1330.5376997743858,0.9985028153606629
1330.5504834825736,0.9986250110949696
1330.5632671907613,0.9984761037111809
1330.576050898949,0.9985274402608506
1330.5888346071367,0.9988187098755601
1330.6016183153247,0.9986560457422738
1330.6144020235124,0.998594145909397
1330.6271857317001,0.9985875029913325
1330.6399694398879,0.9987482373296414
1330.6527531480756,0.9985995524920374
1330.6655368562633,0.998615170634531
1330.678320564451,0.998626320210243
1330.6911042726388,0.9985396953278487
